# Nav2 Real-Time Data Log
# Test 7
# Recorded : 2026-06-24 19:32:17
# Goal     : x=2.4 m  y=6.0 m  theta=90.0 deg
# TF source: map -> base_footprint
# Status   : SUCCEEDED
#
# --- PLANNED PATH ---
# planned_x(m)  planned_y(m)
-0.015000  -0.015000
0.035000  0.035000
0.085000  0.085000
0.135000  0.135000
0.185000  0.185000
0.235000  0.235000
0.285000  0.284999
0.335000  0.334999
0.385000  0.384997
0.435000  0.434995
0.485000  0.484991
0.535000  0.534984
0.585000  0.584970
0.635000  0.634944
0.685000  0.684898
0.735000  0.734817
0.785000  0.784673
0.835000  0.834423
0.885000  0.883996
0.935000  0.933276
0.985000  0.982089
1.035000  1.030170
1.085000  1.077147
1.135000  1.122517
1.185000  1.165657
1.235000  1.205871
1.285000  1.242505
1.335000  1.275123
1.385000  1.303689
1.435000  1.328634
1.485000  1.350732
1.535000  1.370983
1.585000  1.390634
1.635000  1.411086
1.685000  1.433692
1.735000  1.459525
1.785000  1.489227
1.835000  1.523006
1.885000  1.560622
1.935000  1.601498
1.985000  1.644875
2.035000  1.689951
2.085000  1.735939
2.135000  1.782083
2.185000  1.827618
2.235000  1.871737
2.284999  1.913569
2.334998  1.952215
2.384996  1.986862
2.434993  2.016985
2.484986  2.042553
2.534974  2.064123
2.584952  2.082656
2.634912  2.099228
2.684841  2.114815
2.734716  2.130294
2.784498  2.146613
2.834124  2.164836
2.883492  2.186006
2.932444  2.210953
2.980742  2.240145
3.028042  2.273677
3.073875  2.311256
3.117639  2.352296
3.158626  2.396089
3.196108  2.441939
3.229471  2.489248
3.258367  2.537551
3.282806  2.586505
3.303119  2.635875
3.319920  2.685501
3.333931  2.735283
3.345752  2.785159
3.355699  2.835088
3.363843  2.885048
3.370234  2.935026
3.375022  2.985014
3.378452  3.035008
3.380807  3.085004
3.382361  3.135002
3.383340  3.185001
3.383915  3.235001
3.384197  3.285000
3.384244  3.335000
3.384063  3.385000
3.383607  3.435000
3.382769  3.485000
3.381374  3.535000
3.379157  3.585000
3.375766  3.635000
3.370761  3.685000
3.363663  3.735000
3.354037  3.785000
3.341618  3.835000
3.326423  3.885000
3.308770  3.935000
3.289141  3.985000
3.268092  4.035000
3.246140  4.085000
3.223744  4.135000
3.201252  4.185000
3.178909  4.235000
3.156801  4.285000
3.134862  4.335000
3.112877  4.385000
3.090616  4.435000
3.067972  4.485000
3.044955  4.535000
3.021680  4.585000
2.998310  4.635000
2.975032  4.685000
2.952004  4.735000
2.929342  4.785000
2.907047  4.835000
2.885000  4.885000
2.862953  4.935000
2.840658  4.985000
2.817995  5.035000
2.794967  5.085000
2.771687  5.135000
2.748313  5.185000
2.725034  5.235000
2.702005  5.285000
2.679342  5.335000
2.657047  5.385000
2.635000  5.435000
2.612954  5.485000
2.590658  5.535000
2.567995  5.585000
2.544967  5.635000
2.521687  5.685000
2.498313  5.735000
2.475034  5.785000
2.452005  5.835000
2.429342  5.885000
2.407047  5.935000
2.385000  5.985000
#
# --- ACTUAL POSE (TF) + TRACKING ERRORS ---
# time(s)  actual_x(m)  actual_y(m)  err_x(m)  err_y(m)  yaw(deg)
0.5835  -0.039786  -0.032398  nan  nan  0.8440
0.6889  -0.039786  -0.032398  0.024786  0.017398  0.8440
0.7319  -0.039786  -0.032398  0.024786  0.017398  0.8440
0.7827  -0.039724  -0.032397  0.024724  0.017397  0.8523
0.8333  -0.039568  -0.032394  0.024568  0.017394  1.0565
0.8856  -0.039555  -0.032394  0.024555  0.017394  1.2224
0.9353  -0.039565  -0.032394  0.024565  0.017394  1.4984
1.0050  -0.039568  -0.032394  0.024568  0.017394  1.6819
1.0330  -0.039568  -0.032394  0.024568  0.017394  1.8441
1.0824  -0.039575  -0.032395  0.024575  0.017394  1.9809
1.1376  -0.039578  -0.032395  0.024579  0.017395  2.3068
1.1860  -0.039616  -0.032396  0.024616  0.017396  2.6071
1.2327  -0.039694  -0.032400  0.024694  0.017400  2.9059
1.2820  -0.039789  -0.032405  0.024789  0.017405  3.1742
1.3368  -0.039837  -0.032408  0.024837  0.017408  3.3668
1.3857  -0.039867  -0.032410  0.024867  0.017410  3.6519
1.4353  -0.039881  -0.032411  0.024881  0.017411  3.9404
1.4875  -0.039896  -0.032412  0.024896  0.017412  4.2027
1.5317  -0.039945  -0.032416  0.024945  0.017416  4.6191
1.5917  -0.040016  -0.032422  0.025017  0.017422  4.9962
1.6474  -0.040111  -0.032430  0.025112  0.017430  5.3644
1.6947  -0.040139  -0.032433  0.025139  0.017433  5.5737
1.7322  -0.040118  -0.032431  0.025118  0.017431  5.9473
1.7834  -0.040060  -0.032425  0.025060  0.017425  6.3843
1.8320  -0.040013  -0.032419  0.025013  0.017419  6.8506
1.8822  -0.039986  -0.032416  0.024986  0.017416  7.2981
1.9420  -0.039977  -0.032415  0.024977  0.017414  7.5386
1.9963  -0.040796  -0.024050  0.025796  0.009050  8.4372
2.0342  -0.041016  -0.021746  0.026017  0.006746  8.6933
2.0903  -0.041217  -0.019653  0.026217  0.004653  8.9437
2.1343  -0.041213  -0.019652  0.026213  0.004652  9.6176
2.1837  -0.041213  -0.019652  0.026213  0.004652  10.8224
2.2340  -0.041196  -0.019649  0.026196  0.004649  11.3328
2.2819  -0.041176  -0.019645  0.026177  0.004644  11.7525
2.3450  -0.041167  -0.019642  0.026167  0.004642  12.0305
2.3823  -0.041176  -0.019645  0.026176  0.004644  12.6447
2.4331  -0.041193  -0.019648  0.026193  0.004648  12.9859
2.4824  -0.041192  -0.019648  0.026193  0.004648  13.8540
2.5409  -0.041188  -0.019647  0.026188  0.004647  14.1701
2.6255  -0.040781  -0.017203  0.025781  0.002203  15.3657
2.6752  -0.040734  -0.016881  0.025734  0.001881  15.5211
2.7154  -0.040645  -0.016245  0.025645  0.001245  15.8195
2.7583  -0.040630  -0.016132  0.025630  0.001132  15.8725
2.7912  -0.040661  -0.016141  0.025662  0.001141  16.1889
2.8435  -0.040684  -0.016148  0.025685  0.001148  16.5345
2.8986  -0.040623  -0.016129  0.025623  0.001129  17.4083
2.9327  -0.040590  -0.016118  0.025590  0.001118  18.0590
2.9888  -0.040584  -0.016116  0.025584  0.001116  18.3449
3.0329  -0.040539  -0.016100  0.025539  0.001100  19.2751
3.0937  -0.040340  -0.016029  0.025340  0.001029  19.9859
3.1461  -0.040057  -0.015925  0.025057  0.000925  20.3031
3.1983  -0.039837  -0.015843  0.024837  0.000843  20.4018
3.2337  -0.039157  -0.015590  0.024157  0.000590  20.3815
3.2837  -0.039066  -0.015556  0.024066  0.000556  20.3755
3.3330  -0.037271  -0.014467  0.022271  -0.000533  20.2842
3.3853  -0.035401  -0.013381  0.020401  -0.001619  20.3273
3.4369  -0.032587  -0.012065  0.017587  -0.002935  20.7129
3.4927  -0.031494  -0.011649  0.016495  -0.003351  20.9445
3.5441  -0.030707  -0.011345  0.015707  -0.003655  21.1105
3.5970  -0.029882  -0.011024  0.014882  -0.003976  21.2706
3.6951  -0.029882  -0.011024  0.014882  -0.003976  21.2706
3.7328  -0.029882  -0.011024  0.014882  -0.003976  21.2706
3.7881  -0.029882  -0.011024  0.014882  -0.003976  21.2706
3.8333  -0.016504  -0.005415  0.001504  -0.009585  24.1690
3.8897  -0.009684  -0.002231  -0.005316  -0.012769  25.7280
3.9390  -0.004587  0.000296  -0.010412  -0.015296  26.8498
3.9824  0.000838  0.003123  -0.015837  -0.018123  28.0054
4.0326  0.004802  0.005273  -0.019801  -0.020273  28.7587
4.0870  0.013152  0.009789  0.021848  0.025211  30.5359
4.1410  0.017952  0.012543  0.017048  0.022457  31.5487
4.1908  0.024363  0.016591  0.010637  0.018409  32.7979
4.2333  0.027206  0.018448  0.007795  0.016552  33.3575
4.3031  0.029449  0.019944  0.005551  0.015056  33.8041
4.3371  0.033123  0.022447  0.001877  0.012553  34.5459
4.3828  0.040921  0.027994  -0.005921  0.007006  36.0657
4.4326  0.053358  0.037489  -0.018358  -0.002489  38.2345
4.4827  0.056807  0.040245  -0.021807  -0.005245  38.7930
4.5355  0.062609  0.045000  -0.027608  -0.010001  39.7018
4.6079  0.066026  0.047873  -0.031026  -0.012873  40.2243
4.6831  0.066616  0.048375  -0.031616  -0.013375  40.3132
4.7327  0.079644  0.059852  0.005356  0.025147  42.2242
4.7818  0.094240  0.073342  -0.009239  0.011658  44.0765
4.8324  0.108010  0.087104  -0.023010  -0.002104  45.7157
4.8830  0.127909  0.108260  0.007091  0.026740  47.5194
4.9352  0.137898  0.119310  -0.002898  0.015690  48.1172
4.9847  0.138819  0.120340  -0.003819  0.014660  48.1619
5.0343  0.158849  0.140027  -0.023849  -0.005027  48.2706
5.0823  0.166530  0.148659  -0.031530  -0.013659  48.3746
5.1329  0.174133  0.157234  0.010867  0.027766  48.4795
5.1824  0.181909  0.166037  0.003091  0.018963  48.5906
5.2338  0.189742  0.174939  -0.004742  0.010061  48.6925
5.2836  0.197805  0.184125  -0.012805  0.000875  48.7304
5.3339  0.205995  0.193457  -0.020995  -0.008457  48.7133
5.3826  0.210993  0.199142  -0.025993  -0.014142  48.6622
5.4387  0.219577  0.208869  0.015423  0.026130  48.5045
5.4828  0.223043  0.212778  0.011957  0.022221  48.4179
5.5323  0.230413  0.221056  0.004587  0.013944  48.2610
5.5830  0.240689  0.232524  -0.005689  0.002476  48.0551
5.6703  0.244299  0.236534  -0.009299  -0.001534  47.9881
5.6933  0.246128  0.238562  -0.011127  -0.003562  47.9544
5.7457  0.255374  0.248773  -0.020374  -0.013773  47.7683
5.7975  0.261019  0.254979  -0.026019  -0.019979  47.6786
5.8691  0.268702  0.263397  0.016299  0.021602  47.5809
5.8821  0.272562  0.267616  0.012438  0.017383  47.5249
5.9320  0.306998  0.304777  -0.021997  -0.019778  46.8477
6.0033  0.325456  0.324344  0.009544  0.010655  46.5457
6.0387  0.335560  0.334981  -0.000560  0.000018  46.4215
6.0967  0.338499  0.338066  -0.003499  -0.003067  46.3816
6.1509  0.338499  0.338066  -0.003499  -0.003067  46.3816
6.1859  0.364307  0.362695  0.020693  0.022303  45.7607
6.2321  0.378897  0.377616  0.006103  0.007382  45.5663
6.2822  0.389421  0.388325  -0.004421  -0.003328  45.4599
6.3432  0.399891  0.398944  -0.014891  -0.013946  45.3702
6.3847  0.406149  0.405278  -0.021148  -0.020281  45.3426
6.4409  0.420641  0.419945  0.014360  0.015051  45.3426
6.4926  0.428926  0.428329  0.006075  0.006666  45.3426
6.5331  0.433049  0.432501  0.001952  0.002494  45.3353
6.5849  0.451723  0.451379  -0.016722  -0.016383  45.2898
6.6838  0.460104  0.459837  -0.025104  -0.024842  45.2416
6.7341  0.480907  0.480775  0.004093  0.004216  45.1317
6.7830  0.491353  0.491258  -0.006353  -0.006267  45.0786
6.8319  0.497251  0.497168  -0.012251  -0.012177  45.0516
6.8820  0.512238  0.512168  0.022762  0.022816  44.9976
6.9466  0.520384  0.520313  0.014616  0.014671  44.9976
6.9818  0.533467  0.533394  0.001534  0.001590  44.9976
7.0369  0.541947  0.541873  -0.006946  -0.006890  44.9976
7.0824  0.546729  0.546655  -0.011729  -0.011671  44.9976
7.1359  0.546729  0.546655  -0.011729  -0.011671  44.9976
7.1818  0.568242  0.567755  0.016758  0.017214  44.8871
7.2321  0.584048  0.583499  0.000952  0.001470  44.8871
7.3125  0.594540  0.593950  -0.009540  -0.008980  44.8871
7.3475  0.600846  0.600230  -0.015846  -0.015261  44.8871
7.3917  0.611283  0.610635  0.023717  0.024309  44.9338
7.4361  0.621622  0.620961  0.013378  0.013983  44.9878
7.4863  0.636261  0.635617  -0.001260  -0.000673  45.0605
7.5331  0.646682  0.646075  -0.011682  -0.011131  45.1252
7.5887  0.657147  0.656595  -0.022147  -0.021651  45.1703
7.6734  0.667718  0.667236  0.017283  0.017662  45.1899
7.6962  0.671976  0.671522  0.013025  0.013376  45.1899
7.7328  0.680371  0.679973  0.004630  0.004926  45.1837
7.8037  0.686667  0.686307  -0.001667  -0.001408  45.1653
7.8429  0.692867  0.692538  -0.007867  -0.007640  45.1344
7.9067  0.703265  0.702978  -0.018265  -0.018080  45.1136
7.9360  0.705362  0.705083  -0.020362  -0.020185  45.1031
7.9922  0.715721  0.715467  0.019279  0.019349  45.0490
8.0431  0.726132  0.725884  0.008868  0.008932  44.9965
8.0942  0.742908  0.742626  -0.007908  -0.007809  44.8976
8.1364  0.751260  0.750940  -0.016260  -0.016123  44.8549
8.1829  0.753399  0.753067  -0.018399  -0.018251  44.8443
8.2331  0.772310  0.775032  0.012691  0.009641  44.9564
8.2902  0.789074  0.792550  -0.004073  -0.007877  44.9295
8.3468  0.799300  0.802741  -0.014300  -0.018068  44.8854
8.3841  0.799300  0.802741  -0.014300  -0.018068  44.8854
8.4345  0.810150  0.813536  0.024850  0.020888  44.8246
8.4901  0.822589  0.825873  0.012411  0.008550  44.7212
8.5366  0.829384  0.832592  0.005617  0.001831  44.6529
8.5832  0.835678  0.838803  -0.000678  -0.004380  44.5989
8.6776  0.846257  0.849215  -0.011256  -0.014792  44.5103
8.6860  0.850566  0.853448  -0.015566  -0.019025  44.4793
8.7355  0.871611  0.874062  0.013389  0.009934  44.3581
8.7819  0.901121  0.902851  -0.016121  -0.018856  44.2412
8.8347  0.918882  0.920120  0.016119  0.013156  44.1565
8.8881  0.928696  0.929645  0.006304  0.003632  44.1398
8.9329  0.939458  0.940081  -0.004458  -0.006804  44.0941
8.9823  0.950063  0.950341  -0.015063  -0.017064  44.0275
9.0579  0.960738  0.960644  0.024262  0.021444  43.9518
9.0829  0.963960  0.963747  0.021041  0.018341  43.9217
9.1326  0.979455  0.979176  0.005546  0.002912  43.7384
9.1830  0.990041  0.989446  -0.005040  -0.007357  43.6172
9.2323  1.000746  0.999619  -0.015745  -0.017530  43.4844
9.2821  1.011476  1.009767  0.023524  0.020404  43.3485
9.3325  1.018080  1.015990  0.016920  0.014181  43.2718
9.3824  1.030850  1.027972  0.004150  0.002198  43.1098
9.4485  1.037302  1.034000  -0.002302  -0.003830  43.0292
9.4864  1.041646  1.038049  -0.006646  -0.007879  42.9700
9.5356  1.048077  1.044027  -0.013076  -0.013857  42.8833
9.5903  1.061062  1.056041  0.023939  0.021106  42.6873
9.6862  1.071994  1.066081  0.013006  0.011066  42.4776
9.7571  1.078438  1.071960  0.006562  0.005187  42.3240
9.7897  1.079362  1.072799  0.005639  0.004348  42.3020
9.8737  1.089635  1.082100  -0.004635  -0.004953  42.0590
9.8862  1.091591  1.083863  -0.006591  -0.006716  42.0166
9.9495  1.100436  1.091798  -0.015436  -0.014651  41.8310
9.9887  1.104952  1.095831  -0.019952  -0.018684  41.7439
10.0386  1.111593  1.101740  0.023407  0.020777  41.6180
10.0951  1.118133  1.107533  0.016867  0.014985  41.4879
10.1379  1.129030  1.117120  0.005970  0.005398  41.2383
10.1888  1.129030  1.117120  0.005970  0.005398  41.2383
10.2451  1.129030  1.117120  0.005970  0.005398  41.2383
10.2862  1.167315  1.150041  0.017685  0.015616  40.1746
10.3356  1.178381  1.159314  0.006619  0.006344  39.8119
10.3824  1.211726  1.186890  0.023274  0.018981  38.4525
10.4322  1.249481  1.216008  -0.014481  -0.010138  36.8427
10.4829  1.283124  1.240427  0.001876  0.002077  35.1908
10.5319  1.300331  1.252342  -0.015330  -0.009838  34.3286
10.5829  1.312591  1.260596  0.022409  0.014526  33.6867
10.6729  1.325047  1.268772  0.009953  0.006351  33.0089
10.6823  1.327477  1.270343  0.007524  0.004780  32.8771
10.7422  1.346559  1.282392  -0.011559  -0.007270  31.8051
10.7849  1.364580  1.293493  0.020420  0.010196  30.6579
10.8330  1.377220  1.300964  0.007780  0.002724  29.8399
10.8923  1.391396  1.308934  -0.006396  -0.005246  29.0017
10.9333  1.404832  1.316249  -0.019832  -0.012561  28.2816
10.9863  1.417616  1.323019  0.017384  0.005614  27.6582
11.0341  1.430985  1.329914  0.004015  -0.001281  27.0381
11.0882  1.444248  1.336578  -0.009248  -0.007945  26.4369
11.1329  1.454949  1.341833  -0.019949  -0.013199  25.9821
11.1892  1.464295  1.346339  0.020705  0.004393  25.6089
11.2775  1.483185  1.355747  0.001815  -0.005015  24.9992
11.2914  1.483185  1.355747  0.001815  -0.005015  24.9992
11.3413  1.501547  1.364432  -0.016547  -0.013700  24.4582
11.3820  1.522676  1.373890  0.012325  -0.002907  23.8718
11.4321  1.534110  1.378910  0.000890  -0.007927  23.6110
11.4839  1.550564  1.386044  -0.015563  -0.015061  23.3310
11.5327  1.558129  1.389297  0.026872  0.001337  23.2485
11.5953  1.575028  1.396527  0.009972  -0.005893  23.1203
11.6684  1.588540  1.402297  -0.003540  -0.011663  23.1350
11.6856  1.591219  1.403442  -0.006219  -0.012809  23.1422
11.7493  1.612668  1.412638  0.022332  -0.001552  23.2650
11.7824  1.623792  1.417435  0.011208  -0.006349  23.3715
11.8365  1.637428  1.423358  -0.002428  -0.012272  23.5571
11.8835  1.650978  1.429314  -0.015978  -0.018228  23.8512
11.9424  1.661899  1.434185  0.023102  -0.000492  24.1585
11.9826  1.664412  1.435316  0.020588  -0.001624  24.2393
12.0348  1.675131  1.440192  0.009869  -0.006499  24.5911
12.0971  1.675702  1.440454  0.009299  -0.006761  24.6102
12.1455  1.675702  1.440454  0.009299  -0.006761  24.6102
12.2024  1.675702  1.440454  0.009299  -0.006761  24.6102
12.2461  1.693805  1.452274  -0.008805  -0.018582  25.5993
12.2836  1.709264  1.462771  0.025737  -0.003246  26.5058
12.3318  1.756729  1.487823  0.028272  0.001404  28.3245
12.3845  1.795448  1.509330  -0.010447  -0.020103  29.6949
12.4322  1.808273  1.516732  0.026727  0.006273  30.1984
12.4822  1.821036  1.524260  0.013964  -0.001254  30.7588
12.5321  1.833724  1.531927  0.001276  -0.008921  31.4024
12.5822  1.846333  1.539744  -0.011333  -0.016738  32.0657
12.6486  1.854041  1.544627  -0.019041  -0.021621  32.4980
12.6825  1.872495  1.561315  0.012505  -0.000693  33.8076
12.7374  1.882447  1.570656  0.002553  -0.010034  34.5285
12.7824  1.897477  1.581186  -0.012477  -0.020563  35.3571
12.8469  1.904719  1.586372  -0.019719  -0.025749  35.7129
12.8872  1.907134  1.588114  0.027866  0.013384  35.8137
12.9593  1.909540  1.589856  0.025461  0.011642  35.9143
12.9891  1.911942  1.591603  0.023058  0.009895  36.0152
13.0356  1.916715  1.595089  0.018286  0.006409  36.1908
13.0854  1.923849  1.600342  0.011151  0.001156  36.4374
13.1455  1.933330  1.607386  0.001670  -0.005888  36.7107
13.1856  1.945081  1.616207  -0.010081  -0.014709  37.0137
13.2377  1.961547  1.628734  0.023453  0.016141  37.4688
13.2915  1.970884  1.635943  0.014116  0.008933  37.7878
13.3517  1.980168  1.643195  0.004832  0.001681  38.1179
13.3856  1.984807  1.646851  0.000193  -0.001975  38.2806
13.4584  1.986904  1.648510  -0.001904  -0.003635  38.3542
13.4890  1.994939  1.655731  -0.009938  -0.010856  38.6174
13.5416  2.005563  1.665628  -0.020563  -0.020752  39.0575
13.5960  2.013067  1.672517  0.021933  0.017434  39.2856
13.8229  2.013067  1.672517  0.021933  0.017434  39.2856
13.8670  2.013067  1.672517  0.021933  0.017434  39.2856
13.8915  2.013067  1.672517  0.021933  0.017434  39.2856
13.9413  2.013067  1.672517  0.021933  0.017434  39.2856
13.9911  2.105811  1.751574  -0.020810  -0.015635  41.0005
14.0331  2.115035  1.759607  0.019965  0.022476  41.0796
14.0820  2.132609  1.774989  0.002391  0.007094  41.2890
14.1378  2.147683  1.788280  -0.012683  -0.006197  41.4841
14.1948  2.157148  1.796665  -0.022148  -0.014583  41.5642
14.2376  2.164661  1.803334  0.020339  0.024284  41.6070
14.2899  2.174660  1.812219  0.010340  0.015399  41.6246
14.3328  2.181327  1.818142  0.003673  0.009476  41.6111
14.3820  2.200549  1.836092  -0.015549  -0.008474  41.2310
14.4325  2.211006  1.845986  -0.026006  -0.018368  40.8727
14.4823  2.249024  1.878436  -0.014024  -0.006699  39.9528
14.5495  2.280996  1.904738  0.004004  0.008831  39.0180
14.5818  2.294838  1.915857  -0.009839  -0.002287  38.5859
14.6653  2.318109  1.934142  0.016889  0.018073  37.7854
14.6833  2.329859  1.943162  0.005139  0.009053  37.3183
14.7349  2.339861  1.950707  -0.004863  0.001508  36.8497
14.7822  2.353851  1.961027  -0.018853  -0.008812  36.1023
14.8332  2.365855  1.969653  0.019141  0.017210  35.4244
14.8821  2.378208  1.978297  0.006788  0.008565  34.6815
14.9333  2.390389  1.986584  -0.005393  0.000278  33.9276
14.9963  2.395808  1.990195  -0.010812  -0.003333  33.5930
15.0397  2.395808  1.990195  -0.010812  -0.003333  33.5930
15.0828  2.405033  1.997202  -0.020037  -0.010340  32.8755
15.1350  2.409917  2.000830  -0.024921  -0.013967  32.4900
15.1870  2.419761  2.007969  0.015232  0.009015  31.7063
15.2464  2.422644  2.010017  0.012348  0.006967  31.4719
15.2965  2.432294  2.015829  0.002699  0.001156  30.8122
15.3612  2.442464  2.021791  -0.007471  -0.004806  30.1211
15.3874  2.447601  2.024740  -0.012608  -0.007756  29.7739
15.4545  2.452365  2.027438  -0.017372  -0.010453  29.4570
15.4884  2.460530  2.031983  0.024456  0.010569  28.9152
15.5358  2.476180  2.040411  0.008806  0.002141  27.8589
15.6002  2.499808  2.052445  -0.014822  -0.009892  26.3031
15.6764  2.507725  2.056304  -0.022739  -0.013751  25.8303
15.6870  2.507725  2.056304  -0.022739  -0.013751  25.8303
15.7332  2.529549  2.066695  0.005425  -0.002572  24.4003
